Spectrum_Name   :: Ocean
Start_WaveLength:: 897.159 units
End___WaveLength:: 1708.55 units
Interval        :: 1.62666 units
Unit            :: 1nm
Spectral_Data   :: (WaveLength/Energy)
897.159	11328.1
898.786	11702.4
900.412	11597.4
902.038	11942.6
903.663	11872.9
905.288	12243
906.913	12102.7
908.537	12515.4
910.16	12343.9
911.784	12698.4
913.406	12583
915.028	12955.2
916.65	12829.4
918.272	13215.1
919.893	13078.9
921.513	13585.2
923.133	13659.1
924.753	14381.6
926.373	14483.5
927.991	15089.6
929.61	14858.8
931.228	15034.5
932.846	14249.6
934.463	13674.7
936.08	12025.8
937.696	10729.3
939.312	9155.25
940.928	8324.56
942.543	7739.23
944.158	7824.48
945.772	7987.71
947.386	8605.27
949	9119.9
950.613	10102.4
952.226	10750.1
953.838	11853.2
955.451	12519.6
957.062	13716.2
958.674	14254.8
960.284	15366.2
961.895	15800.8
963.505	16884.1
965.115	17204.3
966.724	18267.9
968.333	18408.2
969.942	19384.5
971.55	19415.7
973.158	20318.1
974.766	20382.5
976.373	21321.4
977.98	21271.5
979.586	22129.2
981.192	21908.8
982.798	22796.6
984.404	22581.4
986.009	23452.7
987.613	23154.3
989.218	23975.6
990.822	23651.2
992.425	24399.8
994.029	24019.3
995.632	24814.6
997.234	24394.6
998.836	25163.9
1000.44	24780.3
1002.04	25573.6
1003.64	25079.7
1005.24	25911.5
1006.84	25354.2
1008.44	26079.9
1010.04	25517.4
1011.64	26282.6
1013.24	25830.4
1014.84	26540.5
1016.44	26061.2
1018.04	26876.3
1019.64	26388.7
1021.23	27102.9
1022.83	26443.8
1024.43	27291.1
1026.02	26747.3
1027.62	27553.1
1029.22	26967.8
1030.81	27807.8
1032.41	27242.2
1034	28113.5
1035.6	27541.6
1037.19	28448.2
1038.79	28006.4
1040.38	28773.6
1041.98	28271.5
1043.57	29197.8
1045.16	28643.7
1046.75	29540.9
1048.35	29125
1049.94	29974.5
1051.53	29407.8
1053.12	30307.1
1054.71	29765.5
1056.31	30777.1
1057.9	30257.2
1059.49	31154.5
1061.08	30675.2
1062.67	31723.2
1064.26	31079.6
1065.85	31908.2
1067.44	31370.7
1069.03	32622.5
1070.61	31757.5
1072.2	32824.2
1073.79	32259.6
1075.38	33297.2
1076.97	32517.5
1078.55	33561.3
1080.14	33170.4
1081.73	34172.6
1083.31	33572.7
1084.9	34465.8
1086.49	34059.3
1088.07	35083.3
1089.66	34170.5
1091.24	35309
1092.83	34794.3
1094.42	35832.9
1096	35131.2
1097.58	36027.4
1099.17	35340.1
1100.75	36487.9
1102.34	35756
1103.92	36762.4
1105.5	36019
1107.09	36978.6
1108.67	36393.3
1110.25	37165.8
1111.84	36532.6
1113.42	37370.6
1115	36439.1
1116.58	37467.3
1118.16	36531.6
1119.74	37370.6
1121.33	36474.4
1122.91	37364.4
1124.49	36299.7
1126.07	37104.4
1127.65	36268.6
1129.23	37040
1130.81	36223.9
1132.39	36797.7
1133.97	35606.3
1135.55	36518.1
1137.13	35700.9
1138.71	36664.7
1140.29	35779.9
1141.86	36584.6
1143.44	35993
1145.02	36722.9
1146.6	35975.4
1148.18	36845.6
1149.75	36184.3
1151.33	37030.6
1152.91	36253
1154.49	37112.8
1156.06	36267.5
1157.64	37272.9
1159.22	36494.2
1160.79	37552.5
1162.37	36476.5
1163.95	37341.5
1165.52	36484.8
1167.1	37376.8
1168.68	36456.7
1170.25	37184.5
1171.83	36218.7
1173.4	37074.3
1174.98	36381.9
1176.55	37134.6
1178.13	35919.2
1179.7	36742.6
1181.28	35943.1
1182.85	36782.1
1184.43	35718.6
1186	36411
1187.57	35234.1
1189.15	35912
1190.72	34819.3
1192.3	35626
1193.87	34321.3
1195.44	35101
1197.02	33975.1
1198.59	34731.9
1200.16	33711
1201.74	34461.6
1203.31	33227.5
1204.88	33767.1
1206.45	32761.8
1208.03	33462.5
1209.6	32290.8
1211.17	32683.8
1212.74	31396.7
1214.32	31760.6
1215.89	30764.6
1217.46	31074.4
1219.03	29741.6
1220.6	29819.5
1222.17	28329.7
1223.75	28190.4
1225.32	26361.6
1226.89	25721.2
1228.46	23479.7
1230.03	21751.8
1231.6	18897.9
1233.17	16413.1
1234.74	13350.3
1236.31	11143.1
1237.89	8942.12
1239.46	7676.85
1241.03	6596.65
1242.6	6142.31
1244.17	5746.2
1245.74	5711.89
1247.31	5715.01
1248.88	6037.31
1250.45	6382.48
1252.02	7047.86
1253.59	7624.87
1255.16	8675.97
1256.73	9543.04
1258.3	10936.2
1259.87	11794.9
1261.44	13228.6
1263.01	14155
1264.58	15603.2
1266.15	16321.6
1267.72	17620.2
1269.29	18113
1270.86	19477
1272.43	19787.9
1273.99	20749.5
1275.56	20860.8
1277.13	21923.3
1278.7	21846.4
1280.27	22748.8
1281.84	22668.8
1283.41	23646
1284.98	23477.6
1286.55	24274
1288.12	24023.4
1289.69	24834.4
1291.26	24395.6
1292.83	25263.8
1294.39	24881.2
1295.96	25381.2
1297.53	24803.2
1299.1	25271
1300.67	24614
1302.24	25063.1
1303.81	24318.7
1305.38	24378
1306.95	23222.9
1308.52	23382
1310.08	22341.3
1311.65	22361
1313.22	21061.4
1314.79	20789.1
1316.36	19315.9
1317.93	18761.7
1319.5	17340.5
1321.07	16729.2
1322.64	15321.5
1324.21	14426.3
1325.77	12967.7
1327.34	11980
1328.91	10621.2
1330.48	9736.42
1332.05	8565.76
1333.62	7756.91
1335.19	6795.22
1336.76	6115.28
1338.33	5453.02
1339.9	4858.33
1341.47	4412.32
1343.04	4057.79
1344.61	3806.2
1346.18	3511.97
1347.74	3346.67
1349.31	3220.87
1350.88	3071.16
1352.45	2978.63
1354.02	2884.02
1355.59	2818.52
1357.16	2740.55
1358.73	2666.73
1360.3	2599.15
1361.87	2538.85
1363.44	2491.03
1365.01	2456.72
1366.58	2439.04
1368.15	2423.45
1369.72	2400.58
1371.29	2397.46
1372.86	2406.81
1374.44	2406.81
1376.01	2405.77
1377.58	2413.05
1379.15	2409.93
1380.72	2396.42
1382.29	2393.3
1383.86	2408.89
1385.43	2418.25
1387	2406.81
1388.57	2413.05
1390.14	2406.81
1391.72	2432.81
1393.29	2406.81
1394.86	2421.37
1396.43	2407.85
1398	2417.21
1399.57	2413.05
1401.15	2419.29
1402.72	2413.05
1404.29	2405.77
1405.86	2415.13
1407.44	2404.73
1409.01	2415.13
1410.58	2394.34
1412.15	2421.37
1413.73	2407.85
1415.3	2421.37
1416.87	2392.26
1418.45	2421.37
1420.02	2454.64
1421.59	2416.17
1423.17	2497.26
1424.74	2491.03
1426.31	2529.49
1427.89	2561.72
1429.46	2668.81
1431.04	2716.63
1432.61	2821.64
1434.19	2997.34
1435.76	3127.3
1437.33	3317.56
1438.91	3542.12
1440.49	3822.83
1442.06	4078.59
1443.64	4500.69
1445.21	4783.48
1446.79	5239.89
1448.36	5690.06
1449.94	6209.89
1451.52	6636.15
1453.09	7375.35
1454.67	7817.21
1456.24	8590.71
1457.82	9264.41
1459.4	10037.9
1460.98	10601.4
1462.55	11724.3
1464.13	12127.6
1465.71	13291
1467.29	13796.3
1468.86	14870.3
1470.44	15547.1
1472.02	16517.1
1473.6	16759.3
1475.18	18278.3
1476.76	18226.3
1478.34	19643.3
1479.91	19890.8
1481.49	20800.5
1483.07	21324.5
1484.65	22255
1486.23	22241.5
1487.81	23770.8
1489.39	23259.3
1490.98	24682.6
1492.56	24444.5
1494.14	25125.5
1495.72	25891.7
1497.3	26381.4
1498.88	26072.6
1500.46	27225.6
1502.05	26450
1503.63	28243.4
1505.21	27240.1
1506.79	28055.2
1508.38	28064.6
1509.96	28431.6
1511.54	28531.4
1513.13	28966
1514.71	28634.3
1516.29	30189.7
1517.88	29030.4
1519.46	30771.9
1521.05	29717.7
1522.63	30708.5
1524.22	30484.9
1525.8	30840.5
1527.39	31110.8
1528.98	31064
1530.56	31046.3
1532.15	31825
1533.74	30856.1
1535.32	32427
1536.91	30522.4
1538.5	32069.4
1540.08	30456.9
1541.67	31758.5
1543.26	31233.5
1544.85	31644.1
1546.44	31786.6
1548.03	31793.9
1549.62	32119.3
1551.21	31653.5
1552.8	31544.3
1554.39	31932.1
1555.98	30879
1557.57	31871.8
1559.16	30830.1
1560.75	32994.7
1562.34	30884.2
1563.93	32756.6
1565.52	31118.1
1567.12	32463.4
1568.71	31235.6
1570.3	31745
1571.9	31526.7
1573.49	31256.4
1575.08	31720
1576.68	31127.4
1578.27	31440.4
1579.87	31151.3
1581.46	31319.8
1583.06	31853.1
1584.65	31102.5
1586.25	31394.6
1587.84	30512
1589.44	31602.6
1591.04	30383
1592.63	31644.1
1594.23	29895.4
1595.83	31581.8
1597.43	29391.2
1599.03	31588
1600.62	29396.4
1602.22	31017.2
1603.82	29130.2
1605.42	30744.8
1607.02	28919.2
1608.62	30269.7
1610.22	28839.1
1611.82	29936
1613.42	28682.2
1615.03	29365.2
1616.63	28928.6
1618.23	29212.4
1619.83	28504.4
1621.44	28728.9
1623.04	28368.2
1624.64	28399.4
1626.25	28558.4
1627.85	28389
1629.46	28168.6
1631.06	27735
1632.67	27675.8
1634.27	27597.8
1635.88	28071.9
1637.49	27589.5
1639.09	27641.5
1640.7	27115.4
1642.31	27064.4
1643.92	26699.5
1645.52	27008.3
1647.13	26736.9
1648.74	26599.7
1650.35	26096.5
1651.96	26195.3
1653.57	25649.5
1655.18	25744.1
1656.79	25268.9
1658.4	25193.1
1660.02	24860.4
1661.63	24638.9
1663.24	24335.3
1664.85	23744.8
1666.47	23201.1
1668.08	22425.5
1669.69	22409.9
1671.31	20960.6
1672.92	20829.6
1674.54	19245.2
1676.15	19146.4
1677.77	17377.9
1679.39	17262.5
1681	15327.7
1682.62	15272.6
1684.24	13297.3
1685.86	13209.9
1687.48	11687.9
1689.09	11678.5
1690.71	10296.8
1692.33	10083.7
1693.95	9124.06
1695.57	9025.29
1697.19	8211.24
1698.82	7903.5
1700.44	7393.03
1702.06	7187.17
1703.68	6820.17
1705.31	6473.97
1706.93	6204.69
1708.55	5972.85
